
                     ----------Merging statistics----------                    

Resolution: 54.17 - 1.47
Observations: 345613
Unique reflections: 37358
Redundancy: 9.3
Completeness: 83.81%
Mean intensity: 72.5
Mean I/sigma(I): 9.2
R-merge: 0.124
R-meas:  0.129
R-pim:   0.037

Redundancies (non-anomalous):
  1 : 1852
  2 : 2443
  3 : 1832
  4 : 3247
  5 : 1369
  6 : 2093
  7 : 2657
  8 : 3524
  9 : 500
  10 : 729
  11 : 958
  12 : 1729
  13 : 2347
  14 : 3962
  15 : 4736
  16 : 3358
  17 : 22

  Statistics by resolution bin:
 d_max  d_min   #obs  #uniq   mult.  %comp       <I>  <I/sI>    r_mrg   r_meas    r_pim   r_anom   cc1/2   cc_ano
 54.21   4.00  30478   2514   12.12 100.00     418.5    30.4    0.082    0.085    0.024    0.033   0.996  -0.432
  4.00   3.17  29064   2313   12.57 100.00     304.7    26.8    0.112    0.117    0.032    0.047   0.993  -0.468
  3.17   2.77  29311   2283   12.84 100.00     135.2    20.1    0.134    0.140    0.039    0.071   0.991  -0.335
  2.77   2.52  29828   2268   13.15 100.00      71.1    15.2    0.155    0.162    0.044    0.088   0.988  -0.296
  2.52   2.34  29622   2248   13.18 100.00      53.6    12.5    0.166    0.172    0.047    0.099   0.987  -0.295
  2.34   2.20  29392   2243   13.10 100.00      42.8    10.6    0.182    0.189    0.052    0.113   0.984  -0.229
  2.20   2.09  29246   2221   13.17 100.00      33.2     8.7    0.207    0.216    0.059    0.129   0.980  -0.189
  2.09   2.00  29299   2214   13.23 100.00      24.2     6.9    0.238    0.247    0.068    0.151   0.981  -0.172
  2.00   1.92  25218   2226   11.33 100.00      17.7     5.4    0.268    0.280    0.082    0.190   0.967  -0.192
  1.92   1.86  19240   2202    8.74 100.00      11.9     3.7    0.298    0.316    0.103    0.243   0.954  -0.122
  1.86   1.80  15506   2199    7.05 100.00       8.8     2.6    0.317    0.342    0.124    0.278   0.948  -0.118
  1.80   1.75  12695   2169    5.85  98.73       6.7     1.9    0.349    0.382    0.151    0.358   0.922  -0.035
  1.75   1.70  10308   2067    4.99  94.34       5.3     1.5    0.387    0.430    0.181    0.452   0.904  -0.063
  1.70   1.66   8135   1910    4.26  87.14       4.2     1.1    0.444    0.502    0.226    0.552   0.863  -0.123
  1.66   1.62   6368   1694    3.76  76.76       3.8     0.9    0.487    0.558    0.263    0.694   0.867  -0.006
  1.62   1.59   4979   1465    3.40  66.74       3.2     0.7    0.528    0.613    0.301    0.791   0.815  -0.023
  1.59   1.56   3503   1260    2.78  58.04       2.6     0.5    0.600    0.724    0.393    1.033   0.720  -0.123
  1.56   1.53   2171    994    2.18  45.64       2.3     0.4    0.678    0.855    0.509    1.228   0.615  -0.117
  1.53   1.50    981    644    1.52  29.31       2.0     0.3    0.658    0.870    0.561    1.134   0.507  -0.496
  1.50   1.47    269    224    1.20  10.28       2.0     0.2    0.660    0.892    0.595    1.299   0.422   0.000
 54.17   1.47 345613  37358    9.25  83.81      72.5     9.2    0.124    0.129    0.037    0.074   0.997  -0.371
